u	LTE	log(t)=4	log t 2	log t 0	log t -2	log t -4	log t -6	log t -8	log t -10
1.053000000000000e-5	8.026000000000000e+0	1.902900000000000e+0	1.902900000000000e+0	1.902900000000000e+0	1.902900000000000e+0	1.902900000000000e+0	1.902900000000000e+0	1.913900000000000e+0	4.202500000000000e-1
1.163000000000000e-5	1.079000000000000e+1	2.563400000000000e+0	2.563400000000000e+0	2.563400000000000e+0	2.563400000000000e+0	2.563400000000000e+0	2.563400000000000e+0	2.575100000000000e+0	4.783500000000000e-1
1.283000000000000e-5	1.451000000000000e+1	3.451600000000000e+0	3.451600000000000e+0	3.451700000000000e+0	3.451700000000000e+0	3.451700000000000e+0	3.451700000000000e+0	3.464400000000000e+0	5.422300000000000e-1
1.416000000000000e-5	1.951000000000000e+1	4.646300000000000e+0	4.646300000000000e+0	4.646300000000000e+0	4.646300000000000e+0	4.646300000000000e+0	4.646300000000000e+0	4.660600000000000e+0	6.124300000000000e-1
1.563000000000000e-5	2.622000000000000e+1	6.252800000000000e+0	6.252800000000000e+0	6.252800000000000e+0	6.252800000000000e+0	6.252800000000000e+0	6.252800000000000e+0	6.269800000000000e+0	6.895500000000000e-1
1.725000000000000e-5	3.526000000000000e+1	8.413200000000000e+0	8.413200000000000e+0	8.413200000000000e+0	8.413200000000000e+0	8.413200000000000e+0	8.413200000000000e+0	8.432000000000000e+0	7.742600000000000e-1
1.904000000000000e-5	4.740000000000000e+1	1.131800000000000e+1	1.131800000000000e+1	1.131800000000000e+1	1.131800000000000e+1	1.131800000000000e+1	1.131800000000000e+1	1.132600000000000e+1	8.672900000000000e-1
2.101000000000000e-5	6.373000000000000e+1	1.522400000000000e+1	1.522400000000000e+1	1.522400000000000e+1	1.522500000000000e+1	1.522500000000000e+1	1.522500000000000e+1	1.516700000000000e+1	9.695000000000000e-1
2.319000000000000e-5	8.569000000000000e+1	2.047700000000000e+1	2.047700000000000e+1	2.047700000000000e+1	2.047700000000000e+1	2.047700000000000e+1	2.047700000000000e+1	2.020300000000000e+1	1.081800000000000e+0
2.560000000000000e-5	1.152000000000000e+2	2.753900000000000e+1	2.753900000000000e+1	2.753900000000000e+1	2.753900000000000e+1	2.753900000000000e+1	2.753900000000000e+1	2.669900000000000e+1	1.205200000000000e+0
2.825000000000000e-5	1.549000000000000e+2	3.703500000000000e+1	3.703500000000000e+1	3.703500000000000e+1	3.703500000000000e+1	3.703500000000000e+1	3.703500000000000e+1	3.492600000000000e+1	1.341000000000000e+0
3.118000000000000e-5	2.082000000000000e+2	4.980300000000000e+1	4.980300000000000e+1	4.980300000000000e+1	4.980300000000000e+1	4.980300000000000e+1	4.980300000000000e+1	4.514600000000000e+1	1.490300000000000e+0
3.442000000000000e-5	2.800000000000000e+2	6.697000000000000e+1	6.697000000000000e+1	6.697000000000000e+1	6.697000000000000e+1	6.697000000000000e+1	6.697000000000000e+1	5.744500000000000e+1	1.639300000000000e+0
3.799000000000000e-5	3.764000000000000e+2	9.005100000000000e+1	9.005100000000000e+1	9.005100000000000e+1	9.005100000000000e+1	9.005100000000000e+1	9.005100000000000e+1	7.198200000000000e+1	1.798300000000000e+0
4.193000000000000e-5	5.061000000000000e+2	1.210800000000000e+2	1.210800000000000e+2	1.210800000000000e+2	1.210800000000000e+2	1.210800000000000e+2	1.210800000000000e+2	8.888200000000000e+1	1.970900000000000e+0
4.627000000000000e-5	6.804000000000000e+2	1.628000000000000e+2	1.628000000000000e+2	1.628100000000000e+2	1.628100000000000e+2	1.628100000000000e+2	1.628100000000000e+2	1.082200000000000e+2	2.158300000000000e+0
5.107000000000000e-5	9.148000000000000e+2	2.189000000000000e+2	2.189000000000000e+2	2.189000000000000e+2	2.189000000000000e+2	2.189000000000000e+2	2.189000000000000e+2	1.300400000000000e+2	2.361800000000000e+0
5.637000000000000e-5	1.230000000000000e+3	2.943200000000000e+2	2.943200000000000e+2	2.943200000000000e+2	2.943200000000000e+2	2.943200000000000e+2	2.943200000000000e+2	1.543900000000000e+2	2.582800000000000e+0
6.221000000000000e-5	1.654000000000000e+3	3.957100000000000e+2	3.957100000000000e+2	3.957100000000000e+2	3.957100000000000e+2	3.957100000000000e+2	3.957100000000000e+2	1.813200000000000e+2	2.823000000000000e+0
6.866000000000000e-5	2.223000000000000e+3	5.320300000000000e+2	5.320300000000000e+2	5.320300000000000e+2	5.320300000000000e+2	5.320300000000000e+2	5.320300000000000e+2	2.108900000000000e+2	3.084000000000000e+0
7.579000000000000e-5	2.989000000000000e+3	7.152999999999999e+2	7.152999999999999e+2	7.152999999999999e+2	7.152999999999999e+2	7.152999999999999e+2	7.152999999999999e+2	2.431500000000000e+2	3.367700000000000e+0
8.364000000000000e-5	4.018000000000000e+3	9.617000000000000e+2	9.617000000000000e+2	9.617000000000000e+2	9.617000000000000e+2	9.617000000000000e+2	9.617000000000000e+2	2.782000000000000e+2	3.676100000000000e+0
9.232000000000000e-5	5.403000000000000e+3	1.293000000000000e+3	1.293000000000000e+3	1.293000000000000e+3	1.293000000000000e+3	1.293000000000000e+3	1.293000000000000e+3	3.161700000000000e+2	4.011300000000000e+0
1.019000000000000e-4	7.264000000000000e+3	1.738300000000000e+3	1.738300000000000e+3	1.738300000000000e+3	1.738300000000000e+3	1.738300000000000e+3	1.738400000000000e+3	3.572000000000000e+2	4.375700000000000e+0
1.125000000000000e-4	9.766000000000000e+3	2.337100000000000e+3	2.337100000000000e+3	2.337100000000000e+3	2.337100000000000e+3	2.337100000000000e+3	2.337400000000000e+3	4.014600000000000e+2	4.771899999999999e+0
1.241000000000000e-4	1.313000000000000e+4	3.142000000000000e+3	3.142000000000000e+3	3.142000000000000e+3	3.142000000000000e+3	3.142000000000000e+3	3.143600000000000e+3	4.491800000000000e+2	5.202500000000000e+0
1.370000000000000e-4	1.765000000000000e+4	4.224200000000000e+3	4.224200000000000e+3	4.224200000000000e+3	4.224200000000000e+3	4.224200000000000e+3	4.229500000000000e+3	5.005900000000000e+2	5.670700000000000e+0
1.512000000000000e-4	2.373000000000000e+4	5.679000000000000e+3	5.679000000000000e+3	5.679000000000000e+3	5.679000000000000e+3	5.679000000000000e+3	5.690900000000000e+3	5.559700000000000e+2	6.179700000000001e+0
1.669000000000000e-4	3.191000000000000e+4	7.634900000000000e+3	7.634900000000000e+3	7.634900000000000e+3	7.634900000000000e+3	7.634900000000000e+3	7.649900000000000e+3	6.156400000000000e+2	6.732800000000000e+0
1.842000000000000e-4	4.290000000000000e+4	1.026400000000000e+4	1.026400000000000e+4	1.026400000000000e+4	1.026400000000000e+4	1.026400000000000e+4	1.025300000000000e+4	6.799600000000000e+2	7.334100000000000e+0
2.033000000000000e-4	5.767000000000000e+4	1.379900000000000e+4	1.379900000000000e+4	1.379900000000000e+4	1.379900000000000e+4	1.379900000000000e+4	1.366300000000000e+4	7.493100000000000e+2	7.987500000000000e+0
2.244000000000000e-4	7.753000000000000e+4	1.855100000000000e+4	1.855100000000000e+4	1.855100000000000e+4	1.855100000000000e+4	1.855100000000000e+4	1.804800000000000e+4	8.241300000000000e+2	8.697500000000000e+0
2.476000000000000e-4	1.042000000000000e+5	2.494000000000000e+4	2.494000000000000e+4	2.494000000000000e+4	2.494000000000000e+4	2.494000000000000e+4	2.356600000000000e+4	9.048900000000000e+2	9.468900000000000e+0
2.733000000000000e-4	1.401000000000000e+5	3.352800000000000e+4	3.352800000000000e+4	3.352800000000000e+4	3.352800000000000e+4	3.352800000000000e+4	3.035300000000000e+4	9.921000000000000e+2	1.030700000000000e+1
3.016000000000000e-4	1.884000000000000e+5	4.507200000000000e+4	4.507200000000000e+4	4.507200000000000e+4	4.507200000000000e+4	4.507200000000000e+4	3.851700000000000e+4	1.086300000000000e+3	1.121700000000000e+1
3.329000000000000e-4	2.533000000000000e+5	6.059200000000000e+4	6.059200000000000e+4	6.059200000000000e+4	6.059200000000000e+4	6.059200000000000e+4	4.813700000000000e+4	1.188200000000000e+3	1.220600000000000e+1
3.675000000000000e-4	3.405000000000000e+5	8.145400000000000e+4	8.145400000000000e+4	8.145400000000000e+4	8.145400000000000e+4	8.145400000000000e+4	5.926300000000000e+4	1.298300000000000e+3	1.328000000000000e+1
4.056000000000000e-4	4.578000000000000e+5	1.095000000000000e+5	1.095000000000000e+5	1.095000000000000e+5	1.095000000000000e+5	1.095000000000000e+5	7.192400000000000e+4	1.417500000000000e+3	1.444500000000000e+1
4.476000000000000e-4	6.155000000000000e+5	1.471900000000000e+5	1.471900000000000e+5	1.472000000000000e+5	1.472000000000000e+5	1.472000000000000e+5	8.613300000000000e+4	1.546500000000000e+3	1.571100000000000e+1
4.940000000000000e-4	8.274000000000000e+5	1.978700000000000e+5	1.978700000000000e+5	1.978700000000000e+5	1.978700000000000e+5	1.978700000000000e+5	1.019000000000000e+5	1.686000000000000e+3	1.708400000000000e+1
5.453000000000000e-4	1.112000000000000e+6	2.659800000000000e+5	2.659800000000000e+5	2.659800000000000e+5	2.659800000000000e+5	2.659800000000000e+5	1.192400000000000e+5	1.837200000000000e+3	1.857500000000000e+1
6.018000000000000e-4	1.495000000000000e+6	3.575300000000000e+5	3.575300000000000e+5	3.575300000000000e+5	3.575300000000000e+5	3.575300000000000e+5	1.381500000000000e+5	2.000800000000000e+3	2.019300000000000e+1
6.642000000000000e-4	2.010000000000000e+6	4.805900000000000e+5	4.805900000000000e+5	4.805900000000000e+5	4.805900000000000e+5	4.805900000000000e+5	1.586800000000000e+5	2.178000000000000e+3	2.194700000000000e+1
7.331000000000000e-4	2.703000000000000e+6	6.459800000000000e+5	6.459800000000000e+5	6.459800000000000e+5	6.459900000000000e+5	6.459900000000000e+5	1.808600000000000e+5	2.370000000000000e+3	2.385100000000000e+1
8.091000000000000e-4	3.633000000000000e+6	8.682800000000000e+5	8.682800000000000e+5	8.682800000000000e+5	8.682800000000000e+5	8.682800000000000e+5	2.047400000000000e+5	2.577900000000000e+3	2.591600000000000e+1
8.930000000000000e-4	4.884000000000000e+6	1.167000000000000e+6	1.167000000000000e+6	1.167000000000000e+6	1.167000000000000e+6	1.167100000000000e+6	2.304100000000000e+5	2.803100000000000e+3	2.815400000000000e+1
9.856000000000002e-4	6.565000000000000e+6	1.568600000000000e+6	1.568600000000000e+6	1.568600000000000e+6	1.568600000000000e+6	1.568700000000000e+6	2.579500000000000e+5	3.047000000000000e+3	3.058100000000000e+1
1.088000000000000e-3	8.826000000000000e+6	2.108100000000000e+6	2.108100000000000e+6	2.108100000000000e+6	2.108200000000000e+6	2.108700000000000e+6	2.874900000000000e+5	3.311200000000000e+3	3.321200000000000e+1
1.201000000000000e-3	1.186000000000000e+7	2.833300000000000e+6	2.833300000000000e+6	2.833300000000000e+6	2.833300000000000e+6	2.835200000000000e+6	3.191500000000000e+5	3.597300000000000e+3	3.606400000000000e+1
1.325000000000000e-3	1.595000000000000e+7	3.807900000000000e+6	3.807900000000000e+6	3.807900000000000e+6	3.807900000000000e+6	3.811600000000000e+6	3.531000000000000e+5	3.907300000000000e+3	3.915400000000000e+1
1.463000000000000e-3	2.144000000000000e+7	5.118400000000000e+6	5.118400000000000e+6	5.118400000000000e+6	5.118400000000000e+6	5.117400000000000e+6	3.894900000000000e+5	4.242900000000000e+3	4.250200000000000e+1
1.614000000000000e-3	2.881000000000000e+7	6.882900000000000e+6	6.882900000000000e+6	6.882900000000000e+6	6.882900000000000e+6	6.845600000000000e+6	4.285400000000000e+5	4.606300000000000e+3	4.612900000000000e+1
1.782000000000000e-3	3.873000000000000e+7	9.263300000000000e+6	9.263300000000000e+6	9.263300000000000e+6	9.263300000000000e+6	9.096000000000000e+6	4.704500000000000e+5	4.999800000000000e+3	5.005700000000000e+1
1.966000000000000e-3	5.205000000000000e+7	1.248000000000000e+7	1.248000000000000e+7	1.248000000000000e+7	1.248000000000000e+7	1.196600000000000e+7	5.154600000000000e+5	5.425700000000000e+3	5.431000000000000e+1
2.170000000000000e-3	6.996000000000000e+7	1.683000000000000e+7	1.683000000000000e+7	1.683000000000000e+7	1.683000000000000e+7	1.554300000000000e+7	5.638400000000000e+5	5.886800000000000e+3	5.891600000000000e+1
2.395000000000000e-3	9.403000000000000e+7	2.271000000000000e+7	2.271000000000000e+7	2.271000000000000e+7	2.271000000000000e+7	1.989600000000000e+7	6.158600000000000e+5	6.385900000000000e+3	6.390100000000000e+1
2.644000000000000e-3	1.264000000000000e+8	3.064700000000000e+7	3.064700000000000e+7	3.064700000000000e+7	3.064700000000000e+7	2.507400000000000e+7	6.718300000000000e+5	6.925900000000000e+3	6.929700000000000e+1
2.918000000000000e-3	1.698000000000000e+8	4.134500000000000e+7	4.134500000000000e+7	4.134500000000000e+7	4.134600000000000e+7	3.110700000000000e+7	7.320800000000000e+5	7.510200000000000e+3	7.513600000000000e+1
3.220000000000000e-3	2.282000000000000e+8	5.603300000000000e+7	5.603300000000000e+7	5.603300000000000e+7	5.603300000000000e+7	3.810800000000000e+7	7.970400000000000e+5	8.142300000000000e+3	8.145300000000000e+1
3.554000000000000e-3	3.067000000000000e+8	7.552900000000000e+7	7.552900000000000e+7	7.552900000000000e+7	7.552900000000000e+7	4.589400000000000e+7	8.669600000000000e+5	8.825900000000000e+3	8.828600000000000e+1
3.923000000000000e-3	4.121000000000000e+8	1.017400000000000e+8	1.017400000000000e+8	1.017400000000000e+8	1.017400000000000e+8	5.454200000000000e+7	9.423100000000000e+5	9.565300000000000e+3	9.567700000000000e+1
4.330000000000000e-3	5.537000000000000e+8	1.369400000000000e+8	1.369400000000000e+8	1.369400000000000e+8	1.369400000000000e+8	6.404500000000000e+7	1.023500000000000e+6	1.036500000000000e+4	1.036700000000000e+2
4.779000000000000e-3	7.439000000000000e+8	1.842300000000000e+8	1.842300000000000e+8	1.842300000000000e+8	1.842300000000000e+8	7.439600000000000e+7	1.111100000000000e+6	1.122900000000000e+4	1.123100000000000e+2
5.274000000000000e-3	9.993000000000000e+8	2.477300000000000e+8	2.477300000000000e+8	2.477300000000000e+8	2.477300000000000e+8	8.559400000000000e+7	1.205600000000000e+6	1.216200000000000e+4	1.216400000000000e+2
5.821000000000000e-3	1.342000000000000e+9	3.330000000000000e+8	3.330000000000000e+8	3.330000000000000e+8	3.330000000000000e+8	9.764400000000000e+7	1.307400000000000e+6	1.317100000000000e+4	1.317300000000000e+2
6.425000000000000e-3	1.803000000000000e+9	4.474700000000000e+8	4.474700000000000e+8	4.474700000000000e+8	4.474700000000000e+8	1.105600000000000e+8	1.417300000000000e+6	1.426100000000000e+4	1.426300000000000e+2
7.091000000000000e-3	2.422000000000000e+9	6.011300000000000e+8	6.011300000000000e+8	6.011300000000000e+8	6.011300000000000e+8	1.243700000000000e+8	1.535800000000000e+6	1.543800000000000e+4	1.543900000000000e+2
7.827000000000000e-3	3.252000000000000e+9	8.073900000000000e+8	8.073900000000000e+8	8.073900000000000e+8	8.073800000000000e+8	1.391100000000000e+8	1.663500000000000e+6	1.670800000000000e+4	1.671000000000000e+2
8.638000000000000e-3	4.367000000000000e+9	1.084200000000000e+9	1.084200000000000e+9	1.084200000000000e+9	1.084200000000000e+9	1.548200000000000e+8	1.801300000000000e+6	1.808000000000000e+4	1.808000000000000e+2
9.534000000000002e-3	5.863000000000000e+9	1.513600000000000e+9	1.513600000000000e+9	1.513600000000000e+9	1.513200000000000e+9	1.783900000000000e+8	2.027400000000000e+6	2.033700000000000e+4	2.033800000000000e+2
1.015000000000000e-2	7.077000000000000e+9	1.823800000000000e+9	1.823800000000000e+9	1.823800000000000e+9	1.822600000000000e+9	1.899800000000000e+8	2.131200000000000e+6	2.137200000000000e+4	2.137300000000000e+2
1.046000000000000e-2	7.737000000000000e+9	1.994400000000000e+9	1.994400000000000e+9	1.994400000000000e+9	1.992400000000000e+9	1.957300000000000e+8	2.183100000000000e+6	2.189000000000000e+4	2.189100000000000e+2
1.078000000000000e-2	8.459000000000000e+9	2.180900000000000e+9	2.180900000000000e+9	2.180900000000000e+9	2.177700000000000e+9	2.016000000000000e+8	2.236200000000000e+6	2.242000000000000e+4	2.242000000000000e+2
1.111000000000000e-2	9.248000000000000e+9	2.384800000000000e+9	2.384800000000000e+9	2.384800000000000e+9	2.379700000000000e+9	2.075800000000000e+8	2.290600000000000e+6	2.296200000000000e+4	2.296200000000000e+2
1.144000000000000e-2	1.011000000000000e+10	2.607800000000000e+9	2.607800000000000e+9	2.607800000000000e+9	2.599800000000000e+9	2.136900000000000e+8	2.346200000000000e+6	2.351600000000000e+4	2.351700000000000e+2
1.179000000000000e-2	1.105000000000000e+10	2.851500000000000e+9	2.851500000000000e+9	2.851500000000000e+9	2.839400000000000e+9	2.199100000000000e+8	2.403000000000000e+6	2.408400000000000e+4	2.408500000000000e+2
1.215000000000000e-2	1.208000000000000e+10	3.117900000000000e+9	3.117900000000000e+9	3.118000000000000e+9	3.099900000000000e+9	2.262500000000000e+8	2.461200000000000e+6	2.466400000000000e+4	2.466500000000000e+2
1.252000000000000e-2	1.321000000000000e+10	3.409200000000000e+9	3.409200000000000e+9	3.409300000000000e+9	3.382900000000000e+9	2.327200000000000e+8	2.520700000000000e+6	2.525800000000000e+4	2.525900000000000e+2
1.290000000000000e-2	1.444000000000000e+10	3.727700000000000e+9	3.727700000000000e+9	3.727700000000000e+9	3.689700000000000e+9	2.393100000000000e+8	2.581600000000000e+6	2.586600000000000e+4	2.586600000000000e+2
1.329000000000000e-2	1.579000000000000e+10	4.075800000000000e+9	4.075800000000000e+9	4.075800000000000e+9	4.021900000000000e+9	2.460400000000000e+8	2.643800000000000e+6	2.648700000000000e+4	2.648800000000000e+2
1.369000000000000e-2	1.726000000000000e+10	4.456300000000000e+9	4.456300000000000e+9	4.456300000000000e+9	4.381000000000000e+9	2.528900000000000e+8	2.707500000000000e+6	2.712300000000000e+4	2.712300000000000e+2
1.411000000000000e-2	1.887000000000000e+10	4.872300000000000e+9	4.872300000000000e+9	4.872300000000000e+9	4.768500000000000e+9	2.598900000000000e+8	2.772600000000000e+6	2.777300000000000e+4	2.777300000000000e+2
1.453000000000000e-2	2.062000000000000e+10	5.327000000000000e+9	5.327000000000000e+9	5.327000000000000e+9	5.185900000000000e+9	2.670200000000000e+8	2.839100000000000e+6	2.843700000000000e+4	2.843800000000000e+2
1.498000000000000e-2	2.254000000000000e+10	5.823900000000000e+9	5.823900000000000e+9	5.824000000000000e+9	5.634500000000000e+9	2.742900000000000e+8	2.907200000000000e+6	2.911700000000000e+4	2.911800000000000e+2
1.543000000000000e-2	2.464000000000000e+10	6.367200000000000e+9	6.367200000000000e+9	6.367200000000000e+9	6.115800000000000e+9	2.817100000000000e+8	2.976800000000000e+6	2.981200000000000e+4	2.981300000000000e+2
1.590000000000000e-2	2.693000000000000e+10	6.960900000000000e+9	6.960900000000000e+9	6.960900000000000e+9	6.631000000000000e+9	2.892700000000000e+8	3.048000000000000e+6	3.052300000000000e+4	3.052400000000000e+2
1.638000000000000e-2	2.944000000000000e+10	7.609800000000000e+9	7.609800000000000e+9	7.609800000000000e+9	7.181200000000000e+9	2.969800000000000e+8	3.120700000000000e+6	3.125000000000000e+4	3.125000000000000e+2
1.688000000000000e-2	3.218000000000000e+10	8.319000000000000e+9	8.319000000000000e+9	8.319000000000000e+9	7.767700000000000e+9	3.048500000000000e+8	3.195100000000000e+6	3.199300000000000e+4	3.199300000000000e+2
1.739000000000000e-2	3.517000000000000e+10	9.094000000000000e+9	9.094000000000000e+9	9.094000000000000e+9	8.391300000000000e+9	3.128700000000000e+8	3.271100000000000e+6	3.275200000000000e+4	3.275300000000000e+2
1.792000000000000e-2	3.844000000000000e+10	9.941100000000000e+9	9.941100000000000e+9	9.941100000000000e+9	9.053100000000000e+9	3.210500000000000e+8	3.348800000000000e+6	3.352900000000000e+4	3.352900000000000e+2
1.846000000000000e-2	4.201000000000000e+10	1.086700000000000e+10	1.086700000000000e+10	1.086700000000000e+10	9.753800000000000e+9	3.294000000000000e+8	3.428200000000000e+6	3.432200000000000e+4	3.432200000000000e+2
1.902000000000000e-2	4.591000000000000e+10	1.187800000000000e+10	1.187800000000000e+10	1.187800000000000e+10	1.049400000000000e+10	3.379000000000000e+8	3.509400000000000e+6	3.513300000000000e+4	3.513300000000000e+2
1.960000000000000e-2	5.018000000000000e+10	1.298300000000000e+10	1.298300000000000e+10	1.298400000000000e+10	1.127400000000000e+10	3.465800000000000e+8	3.592300000000000e+6	3.596200000000000e+4	3.596200000000000e+2
2.020000000000000e-2	5.483000000000000e+10	1.419100000000000e+10	1.419100000000000e+10	1.419100000000000e+10	1.209500000000000e+10	3.554300000000000e+8	3.677000000000000e+6	3.680800000000000e+4	3.680900000000000e+2
